0 1:1.036 2:0.506
1 1:0.497 2:1.036
0 1:1.133 2:0.497
1 1:0.559 2:1.133
0 1:1.091 2:0.559
0 1:0.786 2:1.091
0 1:0.742 2:0.786
0 1:0.725 2:0.742
1 1:0.508 2:0.725
1 1:0.47 2:0.508
0 1:1.092 2:0.47
0 1:0.8 2:1.092
0 1:0.78 2:0.8
0 1:0.756 2:0.78
1 1:0.502 2:0.756
0 1:1.062 2:0.502
1 1:0.486 2:1.062
0 1:1.047 2:0.486
1 1:0.611 2:1.047
0 1:0.997 2:0.611
0 1:0.781 2:0.997
1 1:0.508 2:0.781
1 1:0.47 2:0.508
0 1:1.161 2:0.47
1 1:0.505 2:1.161
0 1:1.045 2:0.505
1 1:0.586 2:1.045
0 1:1.086 2:0.586
0 1:0.783 2:1.086
0 1:0.822 2:0.783
0 1:0.817 2:0.822
0 1:0.861 2:0.817
1 1:0.492 2:0.861
0 1:1.239 2:0.492
0 1:0.947 2:1.239
0 1:0.897 2:0.947
0 1:0.909 2:0.897
0 1:0.975 2:0.909
0 1:0.891 2:0.975
0 1:0.917 2:0.891
0 1:0.969 2:0.917
0 1:0.942 2:0.969
0 1:0.897 2:0.942
0 1:0.886 2:0.897
0 1:0.834 2:0.886
0 1:0.864 2:0.834
0 1:0.875 2:0.864
0 1:0.911 2:0.875
0 1:0.88 2:0.911
0 1:0.817 2:0.88
0 1:0.817 2:0.817
0 1:0.811 2:0.817
0 1:0.8 2:0.811
0 1:0.877 2:0.8
0 1:0.898 2:0.877
0 1:0.866 2:0.898
0 1:0.886 2:0.866
0 1:0.873 2:0.886
0 1:0.841 2:0.873
0 1:0.875 2:0.841
0 1:0.953 2:0.875
0 1:0.931 2:0.953
0 1:0.947 2:0.931
0 1:0.953 2:0.947
0 1:0.864 2:0.953
0 1:0.888 2:0.864
0 1:0.953 2:0.888
0 1:0.936 2:0.953
0 1:0.942 2:0.936
0 1:0.897 2:0.942
0 1:0.878 2:0.897
0 1:0.883 2:0.878
0 1:0.828 2:0.883
0 1:0.883 2:0.828
0 1:0.931 2:0.883
0 1:0.906 2:0.931
0 1:0.911 2:0.906
0 1:0.864 2:0.911
0 1:0.813 2:0.864
0 1:0.789 2:0.813
0 1:0.75 2:0.789
0 1:0.8 2:0.75
0 1:0.823 2:0.8
1 1:0.561 2:0.823
1 1:0.461 2:0.561
0 1:1.091 2:0.461
1 1:0.503 2:1.091
0 1:0.978 2:0.503
1 1:0.556 2:0.978
0 1:0.95 2:0.556
1 1:0.508 2:0.95
0 1:0.978 2:0.508
1 1:0.55 2:0.978
0 1:0.93 2:0.55
0 1:0.686 2:0.93
1 1:0.498 2:0.686
1 1:0.45 2:0.498
0 1:1.13 2:0.45
1 1:0.55 2:1.13
0 1:1.092 2:0.55
0 1:0.753 2:1.092
0 1:0.738 2:0.753
1 1:0.489 2:0.738
1 1:0.42 2:0.489
0 1:1.219 2:0.42
1 1:0.547 2:1.219
0 1:1.148 2:0.547
1 1:0.539 2:1.148
0 1:1.105 2:0.539
0 1:0.736 2:1.105
0 1:0.722 2:0.736
0 1:0.734 2:0.722
0 1:0.758 2:0.734
0 1:0.845 2:0.758
0 1:0.861 2:0.845
1 1:0.519 2:0.861
0 1:1.117 2:0.519
0 1:0.8 2:1.117
0 1:0.753 2:0.8
0 1:0.841 2:0.753
0 1:0.939 2:0.841
1 1:0.547 2:0.939
0 1:1.167 2:0.547
0 1:0.847 2:1.167
0 1:0.784 2:0.847
1 1:0.516 2:0.784
1 1:0.461 2:0.516
0 1:1.203 2:0.461
1 1:0.542 2:1.203
0 1:1.166 2:0.542
0 1:0.823 2:1.166
0 1:0.758 2:0.823
1 1:0.494 2:0.758
1 1:0.437 2:0.494
0 1:1.175 2:0.437
1 1:0.53 2:1.175
0 1:1.228 2:0.53
0 1:0.83 2:1.228
0 1:0.803 2:0.83
0 1:0.781 2:0.803
0 1:0.766 2:0.781
0 1:0.767 2:0.766
0 1:0.789 2:0.767
0 1:0.85 2:0.789
0 1:0.822 2:0.85
0 1:0.809 2:0.822
0 1:0.836 2:0.809
0 1:0.814 2:0.836
0 1:0.769 2:0.814
0 1:0.764 2:0.769
0 1:0.819 2:0.764
0 1:0.875 2:0.819
0 1:0.864 2:0.875
0 1:0.806 2:0.864
0 1:0.786 2:0.806
0 1:0.797 2:0.786
0 1:0.811 2:0.797
0 1:0.839 2:0.811
0 1:0.85 2:0.839
0 1:0.839 2:0.85
0 1:0.806 2:0.839
0 1:0.822 2:0.806
0 1:0.858 2:0.822
0 1:0.847 2:0.858
0 1:0.875 2:0.847
0 1:0.914 2:0.875
0 1:0.881 2:0.914
0 1:0.905 2:0.881
0 1:0.873 2:0.905
0 1:0.802 2:0.873
0 1:0.911 2:0.802
0 1:0.992 2:0.911
0 1:0.97 2:0.992
0 1:0.869 2:0.97
0 1:0.847 2:0.869
0 1:0.778 2:0.847
0 1:0.806 2:0.778
0 1:0.872 2:0.806
0 1:0.953 2:0.872
0 1:0.916 2:0.953
0 1:0.995 2:0.916
0 1:0.989 2:0.995
0 1:0.902 2:0.989
0 1:0.964 2:0.902
0 1:1.003 2:0.964
1 1:0.608 2:1.003
0 1:1.325 2:0.608
1 1:0.559 2:1.325
0 1:1.136 2:0.559
0 1:0.828 2:1.136
0 1:0.833 2:0.828
0 1:0.936 2:0.833
1 1:0.55 2:0.936
1 1:0.483 2:0.55
0 1:1.284 2:0.483
1 1:0.491 2:1.284
0 1:1.228 2:0.491
1 1:0.495 2:1.228
1 1:0.458 2:0.495
0 1:1.3 2:0.458
1 1:0.555 2:1.3
0 1:1.298 2:0.555
1 1:0.497 2:1.298
0 1:1.178 2:0.497
1 1:0.505 2:1.178
0 1:1.264 2:0.505
1 1:0.531 2:1.264
0 1:1.383 2:0.531
1 1:0.508 2:1.383
0 1:1.248 2:0.508
1 1:0.508 2:1.248
0 1:1.28 2:0.508
1 1:0.506 2:1.28
0 1:1.389 2:0.506
1 1:0.522 2:1.389
0 1:1.336 2:0.522
1 1:0.495 2:1.336
0 1:1.255 2:0.495
1 1:0.547 2:1.255
0 1:1.353 2:0.547
1 1:0.556 2:1.353
0 1:1.278 2:0.556
0 1:0.961 2:1.278
0 1:0.891 2:0.961
1 1:0.525 2:0.891
1 1:0.503 2:0.525
0 1:1.364 2:0.503
1 1:0.547 2:1.364
0 1:1.334 2:0.547
1 1:0.544 2:1.334
1 1:0.467 2:0.544
0 1:1.208 2:0.467
1 1:0.539 2:1.208
0 1:1.28 2:0.539
1 1:0.556 2:1.28
0 1:1.283 2:0.556
0 1:0.914 2:1.283
1 1:0.503 2:0.914
0 1:1.228 2:0.503
0 1:0.953 2:1.228
1 1:0.575 2:0.953
1 1:0.519 2:0.575
0 1:1.258 2:0.519
1 1:0.545 2:1.258
0 1:1.2 2:0.545
1 1:0.514 2:1.2
0 1:1.247 2:0.514
1 1:0.542 2:1.247
0 1:1.322 2:0.542
0 1:0.966 2:1.322
1 1:0.512 2:0.966
1 1:0.494 2:0.512
0 1:1.269 2:0.494
1 1:0.514 2:1.269
0 1:1.37 2:0.514
0 1:1.044 2:1.37
0 1:0.947 2:1.044
0 1:0.987 2:0.947
1 1:0.538 2:0.987
0 1:1.32 2:0.538
0 1:1.075 2:1.32
0 1:0.997 2:1.075
0 1:1.05 2:0.997
1 1:0.539 2:1.05
0 1:1.253 2:0.539
0 1:0.975 2:1.253
1 1:0.58 2:0.975
1 1:0.534 2:0.58
0 1:1.341 2:0.534
1 1:0.556 2:1.341
0 1:1.211 2:0.556
1 1:0.514 2:1.211
0 1:1.244 2:0.514
1 1:0.62 2:1.244
0 1:1.294 2:0.62
0 1:0.947 2:1.294
1 1:0.545 2:0.947
1 1:0.494 2:0.545
0 1:1.217 2:0.494
1 1:0.506 2:1.217
0 1:1.286 2:0.506
0 1:0.922 2:1.286
1 1:0.55 2:0.922
1 1:0.508 2:0.55
0 1:1.195 2:0.508
1 1:0.48 2:1.195
0 1:1.247 2:0.48
1 1:0.537 2:1.247
0 1:1.272 2:0.537
1 1:0.536 2:1.272
0 1:1.236 2:0.536
1 1:0.5 2:1.236
0 1:1.164 2:0.5
1 1:0.508 2:1.164
0 1:1.236 2:0.508
1 1:0.536 2:1.236
0 1:1.303 2:0.536
1 1:0.5 2:1.303
0 1:1.189 2:0.5
1 1:0.497 2:1.189
0 1:1.27 2:0.497
1 1:0.539 2:1.27
0 1:1.33 2:0.539
1 1:0.525 2:1.33
0 1:1.242 2:0.525
1 1:0.497 2:1.242
0 1:1.267 2:0.497
1 1:0.544 2:1.267
0 1:1.284 2:0.544
1 1:0.541 2:1.284
0 1:1.264 2:0.541
1 1:0.508 2:1.264
0 1:1.22 2:0.508
1 1:0.5 2:1.22
0 1:1.292 2:0.5
1 1:0.555 2:1.292
0 1:1.3 2:0.555
1 1:0.508 2:1.3
0 1:1.237 2:0.508
1 1:0.488 2:1.237
0 1:1.25 2:0.488
1 1:0.548 2:1.25
0 1:1.311 2:0.548
1 1:0.511 2:1.311
0 1:1.253 2:0.511
1 1:0.508 2:1.253
0 1:1.197 2:0.508
1 1:0.5 2:1.197
0 1:1.325 2:0.5
1 1:0.522 2:1.325
0 1:1.281 2:0.522
1 1:0.514 2:1.281
0 1:1.228 2:0.514
1 1:0.5 2:1.228
0 1:1.339 2:0.5
1 1:0.541 2:1.339
0 1:1.306 2:0.541
1 1:0.511 2:1.306
0 1:1.197 2:0.511
1 1:0.508 2:1.197
0 1:1.228 2:0.508
1 1:0.542 2:1.228
0 1:1.242 2:0.542
0 1:0.963 2:1.242
0 1:0.964 2:0.963
1 1:0.531 2:0.964
0 1:1.192 2:0.531
0 1:0.938 2:1.192
0 1:0.989 2:0.938
0 1:0.956 2:0.989
1 1:0.555 2:0.956
0 1:1.228 2:0.555
0 1:0.964 2:1.228
0 1:0.964 2:0.964
0 1:0.997 2:0.964
0 1:1.009 2:0.997
0 1:0.991 2:1.009
0 1:0.959 2:0.991
0 1:1.008 2:0.959
1 1:0.547 2:1.008
0 1:1.314 2:0.547
0 1:1.114 2:1.314
0 1:1.036 2:1.114
0 1:1.017 2:1.036
0 1:1.016 2:1.017
1 1:0.539 2:1.016
0 1:1.334 2:0.539
0 1:1.075 2:1.334
1 1:0.566 2:1.075
0 1:1.267 2:0.566
0 1:1.03 2:1.267
1 1:0.534 2:1.03
0 1:1.316 2:0.534
1 1:0.57 2:1.316
0 1:1.272 2:0.57
1 1:0.611 2:1.272
0 1:1.206 2:0.611
1 1:0.522 2:1.206
1 1:0.511 2:0.522
0 1:1.3 2:0.511
1 1:0.553 2:1.3
0 1:1.336 2:0.553
1 1:0.522 2:1.336
0 1:1.256 2:0.522
1 1:0.503 2:1.256
0 1:1.263 2:0.503
1 1:0.55 2:1.263
0 1:1.331 2:0.55
1 1:0.531 2:1.331
0 1:1.286 2:0.531
1 1:0.502 2:1.286
0 1:1.242 2:0.502
1 1:0.531 2:1.242
0 1:1.302 2:0.531
0 1:1.009 2:1.302
1 1:0.555 2:1.009
0 1:1.198 2:0.555
1 1:0.508 2:1.198
0 1:1.242 2:0.508
1 1:0.566 2:1.242
0 1:1.206 2:0.566
1 1:0.558 2:1.206
0 1:1.092 2:0.558
1 1:0.522 2:1.092
0 1:1.186 2:0.522
0 1:0.92 2:1.186
1 1:0.552 2:0.92
0 1:1.289 2:0.552
1 1:0.581 2:1.289
0 1:1.289 2:0.581
1 1:0.497 2:1.289
0 1:1.197 2:0.497
1 1:0.531 2:1.197
0 1:1.308 2:0.531
0 1:1.0 2:1.308
1 1:0.553 2:1.0
0 1:1.233 2:0.553
0 1:0.97 2:1.233
1 1:0.533 2:0.97
0 1:1.35 2:0.533
1 1:0.547 2:1.35
0 1:1.372 2:0.547
1 1:0.542 2:1.372
0 1:1.267 2:0.542
1 1:0.525 2:1.267
0 1:1.319 2:0.525
1 1:0.558 2:1.319
0 1:1.356 2:0.558
1 1:0.55 2:1.356
0 1:1.253 2:0.55
1 1:0.505 2:1.253
0 1:1.298 2:0.505
1 1:0.572 2:1.298
0 1:1.325 2:0.572
1 1:0.55 2:1.325
0 1:1.286 2:0.55
1 1:0.514 2:1.286
0 1:1.2 2:0.514
0 1:0.905 2:1.2
0 1:0.978 2:0.905
1 1:0.564 2:0.978
0 1:1.347 2:0.564
0 1:0.978 2:1.347
0 1:0.931 2:0.978
0 1:1.044 2:0.931
0 1:1.136 2:1.044
0 1:1.058 2:1.136
0 1:1.084 2:1.058
0 1:1.066 2:1.084
0 1:1.067 2:1.066
0 1:1.028 2:1.067
0 1:1.094 2:1.028
0 1:1.098 2:1.094
0 1:1.061 2:1.098
0 1:1.025 2:1.061
0 1:1.041 2:1.025
0 1:1.156 2:1.041
0 1:1.128 2:1.156
0 1:1.069 2:1.128
0 1:1.017 2:1.069
0 1:1.089 2:1.017
0 1:1.122 2:1.089
0 1:1.047 2:1.122
0 1:1.072 2:1.047
0 1:1.023 2:1.072
0 1:1.052 2:1.023
0 1:1.059 2:1.052
0 1:1.066 2:1.059
0 1:1.111 2:1.066
0 1:0.992 2:1.111
0 1:0.972 2:0.992
0 1:1.075 2:0.972
0 1:1.078 2:1.075
0 1:1.033 2:1.078
0 1:1.067 2:1.033
0 1:1.02 2:1.067
0 1:1.013 2:1.02
0 1:0.962 2:1.013
0 1:0.988 2:0.962
0 1:1.089 2:0.988
0 1:1.159 2:1.089
0 1:1.13 2:1.159
0 1:1.109 2:1.13
0 1:1.108 2:1.109
0 1:1.117 2:1.108
0 1:1.127 2:1.117
0 1:1.092 2:1.127
0 1:1.044 2:1.092
0 1:1.006 2:1.044
0 1:1.106 2:1.006
0 1:1.122 2:1.106
0 1:1.086 2:1.122
0 1:1.155 2:1.086
0 1:1.023 2:1.155
0 1:1.016 2:1.023
0 1:1.075 2:1.016
0 1:1.128 2:1.075
0 1:1.156 2:1.128
0 1:1.014 2:1.156
0 1:1.086 2:1.014
0 1:1.086 2:1.086
0 1:1.139 2:1.086
0 1:1.019 2:1.139
0 1:1.008 2:1.019
0 1:1.02 2:1.008
0 1:1.0 2:1.02
0 1:0.936 2:1.0
0 1:1.008 2:0.936
0 1:1.081 2:1.008
0 1:1.033 2:1.081
0 1:0.959 2:1.033
0 1:1.002 2:0.959
0 1:0.975 2:1.002
0 1:1.123 2:0.975
0 1:1.022 2:1.123
0 1:1.036 2:1.022
0 1:1.061 2:1.036
0 1:0.989 2:1.061
0 1:1.078 2:0.989
0 1:1.094 2:1.078
0 1:1.003 2:1.094
0 1:0.969 2:1.003
0 1:0.995 2:0.969
0 1:1.0 2:0.995
0 1:1.055 2:1.0
0 1:1.092 2:1.055
0 1:1.064 2:1.092
0 1:1.003 2:1.064
0 1:0.941 2:1.003
0 1:0.97 2:0.941
0 1:1.0 2:0.97
0 1:1.039 2:1.0
0 1:1.086 2:1.039
0 1:0.991 2:1.086
0 1:1.0 2:0.991
0 1:1.053 2:1.0
0 1:1.072 2:1.053
0 1:1.089 2:1.072
0 1:1.064 2:1.089
0 1:0.997 2:1.064
0 1:0.956 2:0.997
0 1:0.942 2:0.956
0 1:0.989 2:0.942
0 1:0.98 2:0.989
0 1:1.02 2:0.98
0 1:1.008 2:1.02
0 1:0.942 2:1.008
0 1:1.016 2:0.942
0 1:1.097 2:1.016
0 1:1.045 2:1.097
0 1:1.05 2:1.045
0 1:1.0 2:1.05
0 1:0.955 2:1.0
0 1:1.028 2:0.955
0 1:1.111 2:1.028
0 1:1.117 2:1.111
0 1:1.1 2:1.117
0 1:1.039 2:1.1
0 1:1.133 2:1.039
0 1:1.134 2:1.133
0 1:1.136 2:1.134
0 1:1.102 2:1.136
0 1:1.023 2:1.102
0 1:1.041 2:1.023
0 1:1.059 2:1.041
0 1:1.108 2:1.059
0 1:1.172 2:1.108
0 1:1.061 2:1.172
0 1:1.086 2:1.061
0 1:1.067 2:1.086
0 1:1.103 2:1.067
0 1:1.15 2:1.103
0 1:1.083 2:1.15
0 1:1.07 2:1.083
0 1:0.972 2:1.07
0 1:1.097 2:0.972
0 1:1.114 2:1.097
0 1:1.044 2:1.114
0 1:0.97 2:1.044
0 1:0.869 2:0.97
0 1:0.864 2:0.869
0 1:0.845 2:0.864
0 1:0.886 2:0.845
0 1:0.875 2:0.886
0 1:0.836 2:0.875
0 1:0.83 2:0.836
0 1:0.812 2:0.83
0 1:0.838 2:0.812
0 1:0.839 2:0.838
0 1:0.864 2:0.839
0 1:0.839 2:0.864
0 1:0.856 2:0.839
0 1:0.905 2:0.856
1 1:0.52 2:0.905
0 1:1.186 2:0.52
0 1:0.872 2:1.186
1 1:0.544 2:0.872
0 1:1.278 2:0.544
0 1:0.97 2:1.278
1 1:0.522 2:0.97
0 1:1.186 2:0.522
1 1:0.553 2:1.186
0 1:1.172 2:0.553
1 1:0.586 2:1.172
0 1:1.203 2:0.586
1 1:0.533 2:1.203
1 1:0.492 2:0.533
0 1:1.247 2:0.492
1 1:0.475 2:1.247
0 1:1.27 2:0.475
1 1:0.511 2:1.27
0 1:1.305 2:0.511
1 1:0.539 2:1.305
0 1:1.258 2:0.539
1 1:0.481 2:1.258
0 1:1.167 2:0.481
1 1:0.497 2:1.167
0 1:1.339 2:0.497
1 1:0.553 2:1.339
0 1:1.28 2:0.553
1 1:0.508 2:1.28
0 1:1.248 2:0.508
1 1:0.486 2:1.248
0 1:1.269 2:0.486
1 1:0.534 2:1.269
0 1:1.305 2:0.534
1 1:0.536 2:1.305
0 1:1.184 2:0.536
1 1:0.488 2:1.184
0 1:1.131 2:0.488
1 1:0.508 2:1.131
0 1:1.264 2:0.508
1 1:0.531 2:1.264
0 1:1.28 2:0.531
1 1:0.489 2:1.28
0 1:1.214 2:0.489
1 1:0.492 2:1.214
0 1:1.283 2:0.492
1 1:0.536 2:1.283
0 1:1.317 2:0.536
1 1:0.525 2:1.317
0 1:1.233 2:0.525
1 1:0.486 2:1.233
0 1:1.145 2:0.486
1 1:0.519 2:1.145
0 1:1.25 2:0.519
1 1:0.528 2:1.25
0 1:1.206 2:0.528
1 1:0.486 2:1.206
0 1:1.077 2:0.486
1 1:0.503 2:1.077
0 1:1.228 2:0.503
1 1:0.514 2:1.228
0 1:1.28 2:0.514
1 1:0.512 2:1.28
0 1:1.197 2:0.512
1 1:0.5 2:1.197
0 1:1.28 2:0.5
1 1:0.55 2:1.28
0 1:1.295 2:0.55
1 1:0.536 2:1.295
0 1:1.225 2:0.536
1 1:0.503 2:1.225
0 1:1.186 2:0.503
1 1:0.533 2:1.186
0 1:1.239 2:0.533
0 1:0.925 2:1.239
1 1:0.536 2:0.925
1 1:0.531 2:0.536
0 1:1.25 2:0.531
1 1:0.514 2:1.25
0 1:1.205 2:0.514
0 1:0.892 2:1.205
1 1:0.544 2:0.892
1 1:0.522 2:0.544
0 1:1.298 2:0.522
1 1:0.486 2:1.298
0 1:1.216 2:0.486
1 1:0.487 2:1.216
0 1:1.269 2:0.487
1 1:0.567 2:1.269
0 1:1.28 2:0.567
1 1:0.553 2:1.28
0 1:1.181 2:0.553
1 1:0.497 2:1.181
0 1:1.15 2:0.497
1 1:0.55 2:1.15
1 1:0.497 2:0.55
0 1:1.294 2:0.497
1 1:0.506 2:1.294
0 1:1.264 2:0.506
1 1:0.489 2:1.264
0 1:1.164 2:0.489
1 1:0.502 2:1.164
0 1:1.284 2:0.502
1 1:0.53 2:1.284
0 1:1.211 2:0.53
1 1:0.5 2:1.211
0 1:1.178 2:0.5
1 1:0.495 2:1.178
0 1:1.227 2:0.495
1 1:0.539 2:1.227
0 1:1.228 2:0.539
1 1:0.522 2:1.228
0 1:1.156 2:0.522
1 1:0.492 2:1.156
0 1:1.172 2:0.492
1 1:0.516 2:1.172
0 1:1.27 2:0.516
1 1:0.539 2:1.27
0 1:1.275 2:0.539
1 1:0.514 2:1.275
0 1:1.216 2:0.514
1 1:0.511 2:1.216
0 1:1.275 2:0.511
1 1:0.545 2:1.275
0 1:1.308 2:0.545
1 1:0.522 2:1.308
0 1:1.173 2:0.522
1 1:0.508 2:1.173
0 1:1.278 2:0.508
1 1:0.558 2:1.278
0 1:1.272 2:0.558
1 1:0.528 2:1.272
0 1:1.239 2:0.528
1 1:0.556 2:1.239
0 1:1.166 2:0.556
1 1:0.506 2:1.166
0 1:1.314 2:0.506
1 1:0.564 2:1.314
0 1:1.311 2:0.564
1 1:0.505 2:1.311
1 1:0.506 2:0.505
0 1:1.23 2:0.506
1 1:0.525 2:1.23
0 1:1.286 2:0.525
1 1:0.556 2:1.286
1 1:0.492 2:0.556
0 1:1.308 2:0.492
1 1:0.5 2:1.308
0 1:1.303 2:0.5
1 1:0.516 2:1.303
1 1:0.495 2:0.516
0 1:1.433 2:0.495
0 1:1.072 2:1.433
0 1:0.978 2:1.072
1 1:0.528 2:0.978
1 1:0.461 2:0.528
0 1:1.35 2:0.461
0 1:1.158 2:1.35
1 1:0.564 2:1.158
1 1:0.5 2:0.564
0 1:1.336 2:0.5
1 1:0.495 2:1.336
1 1:0.475 2:0.495
0 1:1.355 2:0.475
0 1:1.092 2:1.355
0 1:0.964 2:1.092
0 1:1.014 2:0.964
1 1:0.542 2:1.014
1 1:0.48 2:0.542
0 1:1.283 2:0.48
0 1:1.098 2:1.283
0 1:1.139 2:1.098
0 1:1.102 2:1.139
0 1:1.064 2:1.102
0 1:1.147 2:1.064
0 1:1.056 2:1.147
0 1:0.992 2:1.056
0 1:1.025 2:0.992
0 1:1.116 2:1.025
0 1:1.006 2:1.116
0 1:1.08 2:1.006
0 1:1.17 2:1.08
0 1:1.136 2:1.17
0 1:1.15 2:1.136
0 1:1.161 2:1.15
0 1:1.183 2:1.161
0 1:1.245 2:1.183
0 1:1.203 2:1.245
0 1:1.222 2:1.203
0 1:1.111 2:1.222
0 1:1.111 2:1.111
0 1:1.061 2:1.111
0 1:1.156 2:1.061
0 1:1.241 2:1.156
0 1:1.181 2:1.241
0 1:0.958 2:1.181
0 1:0.984 2:0.958
0 1:1.047 2:0.984
0 1:0.967 2:1.047
0 1:0.944 2:0.967
1 1:0.592 2:0.944
1 1:0.502 2:0.592
0 1:1.245 2:0.502
0 1:0.961 2:1.245
0 1:0.989 2:0.961
0 1:0.964 2:0.989
1 1:0.578 2:0.964
1 1:0.519 2:0.578
0 1:1.35 2:0.519
0 1:1.1 2:1.35
0 1:1.125 2:1.1
1 1:0.581 2:1.125
1 1:0.533 2:0.581
0 1:1.422 2:0.533
0 1:1.128 2:1.422
1 1:0.533 2:1.128
1 1:0.484 2:0.533
0 1:1.447 2:0.484
0 1:1.219 2:1.447
1 1:0.564 2:1.219
1 1:0.511 2:0.564
0 1:1.381 2:0.511
0 1:1.214 2:1.381
1 1:0.533 2:1.214
1 1:0.536 2:0.533
0 1:1.503 2:0.536
1 1:0.53 2:1.503
1 1:0.5 2:0.53
0 1:1.362 2:0.5
0 1:1.119 2:1.362
1 1:0.542 2:1.119
1 1:0.5 2:0.542
0 1:1.472 2:0.5
0 1:1.183 2:1.472
1 1:0.525 2:1.183
1 1:0.475 2:0.525
0 1:1.392 2:0.475
0 1:1.203 2:1.392
1 1:0.566 2:1.203
1 1:0.509 2:0.566
0 1:1.436 2:0.509
0 1:1.155 2:1.436
1 1:0.525 2:1.155
1 1:0.467 2:0.525
0 1:1.453 2:0.467
0 1:1.275 2:1.453
1 1:0.541 2:1.275
1 1:0.503 2:0.541
0 1:1.37 2:0.503
1 1:0.527 2:1.37
1 1:0.481 2:0.527
0 1:1.456 2:0.481
0 1:1.283 2:1.456
1 1:0.544 2:1.283
1 1:0.503 2:0.544
0 1:1.356 2:0.503
1 1:0.491 2:1.356
1 1:0.478 2:0.491
0 1:1.5 2:0.478
0 1:1.195 2:1.5
1 1:0.552 2:1.195
1 1:0.478 2:0.552
0 1:1.372 2:0.478
0 1:1.145 2:1.372
1 1:0.558 2:1.145
1 1:0.52 2:0.558
0 1:1.472 2:0.52
0 1:1.1 2:1.472
1 1:0.525 2:1.1
1 1:0.475 2:0.525
0 1:1.355 2:0.475
0 1:1.178 2:1.355
1 1:0.564 2:1.178
1 1:0.514 2:0.564
0 1:1.372 2:0.514
0 1:1.061 2:1.372
1 1:0.528 2:1.061
1 1:0.497 2:0.528
0 1:1.378 2:0.497
0 1:1.206 2:1.378
1 1:0.547 2:1.206
1 1:0.53 2:0.547
0 1:1.311 2:0.53
1 1:0.517 2:1.311
1 1:0.483 2:0.517
0 1:1.389 2:0.483
1 1:0.525 2:1.389
1 1:0.52 2:0.525
0 1:1.33 2:0.52
1 1:0.52 2:1.33
0 1:1.178 2:0.52
1 1:0.53 2:1.178
1 1:0.478 2:0.53
0 1:1.336 2:0.478
1 1:0.533 2:1.336
1 1:0.481 2:0.533
0 1:1.278 2:0.481
1 1:0.494 2:1.278
0 1:1.289 2:0.494
1 1:0.533 2:1.289
1 1:0.575 2:0.533
0 1:1.353 2:0.575
1 1:0.522 2:1.353
0 1:1.295 2:0.522
0 1:0.947 2:1.295
1 1:0.508 2:0.947
0 1:1.292 2:0.508
0 1:1.022 2:1.292
1 1:0.564 2:1.022
0 1:1.336 2:0.564
0 1:0.981 2:1.336
1 1:0.516 2:0.981
1 1:0.503 2:0.516
0 1:1.434 2:0.503
0 1:1.191 2:1.434
1 1:0.55 2:1.191
0 1:1.35 2:0.55
1 1:0.547 2:1.35
1 1:0.509 2:0.547
0 1:1.419 2:0.509
0 1:1.184 2:1.419
1 1:0.569 2:1.184
1 1:0.536 2:0.569
0 1:1.389 2:0.536
0 1:1.031 2:1.389
1 1:0.538 2:1.031
1 1:0.509 2:0.538
0 1:1.497 2:0.509
0 1:1.147 2:1.497
0 1:1.028 2:1.147
1 1:0.542 2:1.028
1 1:0.511 2:0.542
0 1:1.389 2:0.511
0 1:1.133 2:1.389
1 1:0.575 2:1.133
1 1:0.506 2:0.575
0 1:1.377 2:0.506
0 1:0.981 2:1.377
1 1:0.525 2:0.981
0 1:1.272 2:0.525
1 1:0.614 2:1.272
0 1:1.214 2:0.614
0 1:0.855 2:1.214
0 1:0.931 2:0.855
0 1:0.864 2:0.931
1 1:0.561 2:0.864
1 1:0.492 2:0.561
0 1:1.347 2:0.492
1 1:0.567 2:1.347
0 1:1.166 2:0.567
0 1:0.8 2:1.166
0 1:0.764 2:0.8
0 1:0.808 2:0.764
0 1:0.798 2:0.808
0 1:0.861 2:0.798
1 1:0.572 2:0.861
1 1:0.489 2:0.572
0 1:1.253 2:0.489
1 1:0.511 2:1.253
0 1:1.103 2:0.511
0 1:0.897 2:1.103
1 1:0.569 2:0.897
1 1:0.514 2:0.569
0 1:1.211 2:0.514
1 1:0.542 2:1.211
0 1:1.047 2:0.542
1 1:0.5 2:1.047
1 1:0.458 2:0.5
0 1:1.173 2:0.458
1 1:0.527 2:1.173
0 1:1.156 2:0.527
1 1:0.536 2:1.156
0 1:1.072 2:0.536
1 1:0.503 2:1.072
0 1:1.086 2:0.503
1 1:0.497 2:1.086
0 1:1.206 2:0.497
1 1:0.55 2:1.206
0 1:1.208 2:0.55
1 1:0.525 2:1.208
0 1:1.156 2:0.525
1 1:0.497 2:1.156
0 1:1.122 2:0.497
1 1:0.542 2:1.122
0 1:1.236 2:0.542
1 1:0.528 2:1.236
0 1:1.133 2:0.528
1 1:0.517 2:1.133
1 1:0.492 2:0.517
0 1:1.194 2:0.492
1 1:0.514 2:1.194
0 1:1.197 2:0.514
0 1:0.858 2:1.197
1 1:0.528 2:0.858
1 1:0.506 2:0.528
0 1:1.141 2:0.506
1 1:0.478 2:1.141
0 1:1.103 2:0.478
1 1:0.522 2:1.103
0 1:1.12 2:0.522
1 1:0.558 2:1.12
0 1:1.053 2:0.558
0 1:0.758 2:1.053
1 1:0.52 2:0.758
1 1:0.466 2:0.52
0 1:1.164 2:0.466
1 1:0.558 2:1.164
0 1:1.148 2:0.558
1 1:0.541 2:1.148
1 1:0.503 2:0.541
0 1:1.22 2:0.503
0 1:0.83 2:1.22
0 1:0.856 2:0.83
0 1:0.964 2:0.856
1 1:0.577 2:0.964
0 1:1.353 2:0.577
0 1:0.992 2:1.353
0 1:0.961 2:0.992
1 1:0.539 2:0.961
1 1:0.494 2:0.539
0 1:1.253 2:0.494
